# dimensionless total lensed [l(l+1)/2pi] C_l's
# for l=2 to 2500, i.e. number of multipoles equal to 2499
#
# -> if you prefer output in CAMB/HealPix/LensPix units/order, set 'format' to 'camb' in input file
# -> if you don't want to see such a header, set 'headers' to 'no' in input file
# -> for CMB lensing (phi), these are C_l^phi-phi for the lensing potential.
#    Remember the conversion factors:
#    C_l^dd (deflection) = l(l+1) C_l^phi-phi
#    C_l^gg (shear/convergence) = 1/4 (l(l+1))^2 C_l^phi-phi
#
# 1:l     2:TT                     3:EE                     4:TE                     5:BB                     6:phiphi                 7:TPhi                   8:Ephi               
    2       1.494403230428e-10       7.315255032648e-15       4.820653044731e-13       2.389541982411e-19       8.899389736991e-09       4.879130428436e-10      -2.513521431541e-12 
    3       1.408259477650e-10       1.238678606275e-14       6.064281767045e-13       4.781390951241e-19       5.433446197626e-09       3.466906200111e-10      -2.211231949942e-12 
    4       1.323537120937e-10       1.446359253677e-14       6.273191378520e-13       7.974030721917e-19       3.759385827861e-09       2.634429328862e-10      -1.764012621815e-12 
    5       1.256439198789e-10       1.337727328089e-14       5.875002817540e-13       1.197031541031e-18       2.796793172620e-09       2.088134192916e-10      -1.309402795484e-12 
    6       1.207006581752e-10       1.032313332231e-14       5.169915206726e-13       1.677362908537e-18       2.178869979092e-09       1.703675279266e-10      -8.948042835169e-13 
    7       1.172270902827e-10       6.842899601167e-15       4.361966092764e-13       2.238777418024e-18       1.753748511793e-09       1.420095873476e-10      -5.443789344531e-13 
    8       1.149030501740e-10       4.044723775167e-15       3.573938699278e-13       2.881684780772e-18       1.446454095036e-09       1.203520480397e-10      -2.689073494208e-13 
    9       1.134840764158e-10       2.339584344737e-15       2.878519852784e-13       3.606511085456e-18       1.215778588718e-09       1.033589443692e-10      -7.004096756894e-14 
   10       1.127554316036e-10       1.575763994031e-15       2.316262904541e-13       4.413685499876e-18       1.037473918834e-09       8.976792718951e-11       5.752365560903e-14 
   11       1.125775012851e-10       1.351009176544e-15       1.904203075994e-13       5.303627285460e-18       8.886918179409e-10       7.950450882698e-11       1.233840822173e-13 
   12       1.128415339870e-10       1.294508577236e-15       1.639366249997e-13       6.276733630009e-18       7.765295302522e-10       7.028204838125e-11       1.421785057020e-13 
   13       1.134275161583e-10       1.207999520623e-15       1.504230054068e-13       7.333368768646e-18       6.844576600868e-10       6.274523694895e-11       1.277247698099e-13 
   14       1.142370402799e-10       1.063277979704e-15       1.473067584932e-13       8.473854808373e-18       6.078517436828e-10       5.620884306395e-11       9.278650604864e-14 
   15       1.152761647694e-10       9.202623322462e-16       1.515764495201e-13       9.698464600297e-18       5.433702540159e-10       5.074694242951e-11       4.960475879730e-14 
   16       1.165060546604e-10       8.404139183640e-16       1.602035911636e-13       1.100741691828e-17       4.885461484761e-10       4.611727559220e-11       7.263364155139e-15 
   17       1.178440246594e-10       8.411673141338e-16       1.706704855039e-13       1.240087410708e-17       4.415160341461e-10       4.212051396642e-11      -2.790444254623e-14 
   18       1.192850607907e-10       8.974129711188e-16       1.812133430241e-13       1.387894226076e-17       4.008506797939e-10       3.859171424424e-11      -5.238554572559e-14 
   19       1.208628724660e-10       9.694285029095e-16       1.906663750201e-13       1.544167388752e-17       3.654378698975e-10       3.544065458743e-11      -6.516278392616e-14 
   20       1.225100564379e-10       1.031080880841e-15       1.984434551579e-13       1.708907291440e-17       3.344024098698e-10       3.267448592764e-11      -6.707331776280e-14 
   21       1.242056185879e-10       1.081578219216e-15       2.046211016212e-13       1.882110178876e-17       3.070460577711e-10       3.022793795621e-11      -6.045169052369e-14 
   22       1.260145060522e-10       1.139337189263e-15       2.095475738417e-13       2.063769034655e-17       2.828062925916e-10       2.802761173113e-11      -4.836116165111e-14 
   23       1.278402451457e-10       1.227162167015e-15       2.137385311985e-13       2.253874604491e-17       2.612250054041e-10       2.601651082206e-11      -3.403736224356e-14 
   24       1.297389766617e-10       1.359530280761e-15       2.177478701713e-13       2.452416509993e-17       2.419266253356e-10       2.417475062773e-11      -2.038766042079e-14 
   25       1.316538471074e-10       1.538417128591e-15       2.220841194491e-13       2.659384403300e-17       2.246001992815e-10       2.254187431134e-11      -9.406085479747e-15 
   26       1.336271773887e-10       1.757203341085e-15       2.271215242917e-13       2.874769111243e-17       2.089862673273e-10       2.109218735677e-11      -2.291819656701e-15 
   27       1.356842517043e-10       2.007607721312e-15       2.328070008906e-13       3.098563718126e-17       1.948669446529e-10       1.977429623398e-11       6.364002602958e-16 
   28       1.376804164057e-10       2.284848297285e-15       2.390769499245e-13       3.330764538743e-17       1.820579118555e-10       1.855757226679e-11      -1.927924479551e-16 
   29       1.397884934101e-10       2.588743275629e-15       2.455951403325e-13       3.571371937823e-17       1.704025905035e-10       1.745353486910e-11      -3.810594640864e-15 
   30       1.418821916626e-10       2.920561101999e-15       2.519560766779e-13       3.820390958451e-17       1.597671401470e-10       1.644875446857e-11      -9.171842654124e-15 
   31       1.439973685597e-10       3.279818872575e-15       2.578441005187e-13       4.077831729980e-17       1.500382667824e-10       1.552033399239e-11      -1.513280468862e-14 
   32       1.462320538788e-10       3.664163398835e-15       2.624599869369e-13       4.343709635143e-17       1.411166784870e-10       1.468632224022e-11      -2.022596345164e-14 
   33       1.483726673441e-10       4.070501359011e-15       2.655035144283e-13       4.618045226140e-17       1.329161456644e-10       1.391789993840e-11      -2.358213256198e-14 
   34       1.506146528835e-10       4.496983965567e-15       2.668286037447e-13       4.900863890058e-17       1.253613461287e-10       1.320123101539e-11      -2.482525498745e-14 
   35       1.528894607360e-10       4.944703419031e-15       2.661115307030e-13       5.192195274517e-17       1.183882516076e-10       1.248564306344e-11      -2.450879688935e-14 
   36       1.551036992522e-10       5.417603133941e-15       2.636606837614e-13       5.492072494661e-17       1.119397698221e-10       1.185463343125e-11      -2.233476568627e-14 
   37       1.574587504285e-10       5.921118186394e-15       2.594710899448e-13       5.800531151973e-17       1.059648683449e-10       1.129631115309e-11      -1.878724586421e-14 
   38       1.597746706365e-10       6.460000864285e-15       2.535666394162e-13       6.117608203561e-17       1.004188150532e-10       1.074780538142e-11      -1.495429849338e-14 
   39       1.621014676048e-10       7.037041689176e-15       2.463698489762e-13       6.443340727201e-17       9.526355861719e-11       1.021740532103e-11      -1.144663359194e-14 
   40       1.645276109406e-10       7.653016175875e-15       2.378021001489e-13       6.777764632235e-17       9.046340430587e-11       9.749584489887e-12      -8.354708973943e-15 
   41       1.668760190130e-10       8.307265606898e-15       2.280891390747e-13       7.120913369214e-17       8.598667742300e-11       9.316909778592e-12      -6.283284038358e-15 
   42       1.693042407301e-10       8.998616976489e-15       2.175219025580e-13       7.472816691811e-17       8.180664490885e-11       8.887555317950e-12      -5.725794050780e-15 
   43       1.718073790245e-10       9.726090400820e-15       2.057214113544e-13       7.833499522994e-17       7.789803860805e-11       8.505143957544e-12      -5.910870097882e-15 
   44       1.742158080593e-10       1.049014415627e-14       1.926431143910e-13       8.202980973773e-17       7.423783786257e-11       8.141690319604e-12      -6.883570175638e-15 
   45       1.767021919349e-10       1.129211943405e-14       1.782928960051e-13       8.581273557161e-17       7.080698993148e-11       7.784290785787e-12      -8.645161758284e-15 
   46       1.792161872440e-10       1.213170564932e-14       1.622992807203e-13       8.968382859751e-17       6.758597084795e-11       7.468592664897e-12      -1.026958353677e-14 
   47       1.817532910405e-10       1.300871051180e-14       1.445225302259e-13       9.364306106711e-17       6.456067368302e-11       7.185145064495e-12      -1.145094235031e-14 
   48       1.843364224814e-10       1.392302373585e-14       1.249099078822e-13       9.769034435058e-17       6.171401519913e-11       6.910208633263e-12      -1.212736430784e-14 
   49       1.869325427596e-10       1.487443124413e-14       1.033817682951e-13       1.018255073756e-16       5.903414159080e-11       6.638748037495e-12      -1.226868982665e-14 
   50       1.895071529107e-10       1.586286941932e-14       7.986036183613e-14       1.060483155267e-16       5.650739665409e-11       6.372388551628e-12      -1.186392105901e-14 
   51       1.921078395515e-10       1.688932559654e-14       5.431917520743e-14       1.103584756312e-16       5.412393676056e-11       6.120392544775e-12      -1.093680018694e-14 
   52       1.947856717771e-10       1.795494054753e-14       2.678668932590e-14       1.147556415302e-16       5.187242415090e-11       5.891271662171e-12      -9.566639603945e-15 
   53       1.974901342232e-10       1.906000905893e-14      -2.546851639034e-15       1.192394379094e-16       4.974464350102e-11       5.678495919280e-12      -8.004840269295e-15 
   54       2.001625885134e-10       2.020446030052e-14      -3.348052572718e-14       1.238094538055e-16       4.773120576185e-11       5.472696179331e-12      -6.548917106175e-15 
   55       2.028579198854e-10       2.138779143757e-14      -6.604455708525e-14       1.284652849153e-16       4.582517373042e-11       5.274428626543e-12      -5.390158943824e-15 
   56       2.056396773812e-10       2.260926458155e-14      -1.002899590322e-13       1.332065139906e-16       4.401865783224e-11       5.086904276085e-12      -4.673065618000e-15 
   57       2.084523405898e-10       2.386795935991e-14      -1.360619324967e-13       1.380327659136e-16       4.230577718032e-11       4.912791217489e-12      -4.421874872606e-15 
   58       2.112291645252e-10       2.516309072156e-14      -1.732008778665e-13       1.429436769491e-16       4.067988400389e-11       4.752847779270e-12      -4.621148336869e-15 
   59       2.140228343931e-10       2.649502198189e-14      -2.118289723655e-13       1.479389557110e-16       3.913594486679e-11       4.600184400592e-12      -5.239275347956e-15 
   60       2.168982385206e-10       2.786444329022e-14      -2.521255776130e-13       1.530183445998e-16       3.766830343032e-11       4.447421116013e-12      -6.198587071238e-15 
   61       2.198120735047e-10       2.927195297617e-14      -2.941297289745e-13       1.581816784833e-16       3.627266256744e-11       4.296986508600e-12      -7.263618058949e-15 
   62       2.227082228087e-10       3.071778401545e-14      -3.378513412941e-13       1.634288432141e-16       3.494422251779e-11       4.153578974181e-12      -8.176316278662e-15 
   63       2.256228427152e-10       3.220060102725e-14      -3.833388135445e-13       1.687598243525e-16       3.367928635515e-11       4.019178036837e-12      -8.844533687285e-15 
   64       2.286029420382e-10       3.371882406746e-14      -4.306394083792e-13       1.741746677921e-16       3.247374772560e-11       3.894205912228e-12      -9.229907193908e-15 
   65       2.316214284909e-10       3.527212213357e-14      -4.797384191308e-13       1.796735109862e-16       3.132445527264e-11       3.775580340875e-12      -9.341902175829e-15 
   66       2.346409165533e-10       3.686019183794e-14      -5.306027689817e-13       1.852565528052e-16       3.022789074280e-11       3.659827424332e-12      -9.212454194496e-15 
   67       2.376787837927e-10       3.848140521840e-14      -5.832029050663e-13       1.909240666340e-16       2.918115370802e-11       3.547140322076e-12      -8.903436198482e-15 
   68       2.407619747492e-10       4.013393787792e-14      -6.375048495343e-13       1.966763774953e-16       2.818111690591e-11       3.438590913127e-12      -8.495758580841e-15 
   69       2.438891160678e-10       4.181708518446e-14      -6.934604638506e-13       2.025138425565e-16       2.722575941167e-11       3.334713804628e-12      -8.096015877475e-15 
   70       2.470499530830e-10       4.353043832706e-14      -7.510134590703e-13       2.084368644356e-16       2.631259325840e-11       3.235869311273e-12      -7.827589577103e-15 
   71       2.502350473735e-10       4.527351228244e-14      -8.101109762992e-13       2.144458748242e-16       2.543864069161e-11       3.142151859248e-12      -7.798249899571e-15 
   72       2.534444376707e-10       4.704550691815e-14      -8.707340715538e-13       2.205412640370e-16       2.460225158807e-11       3.052673679696e-12      -8.005540485986e-15 
   73       2.566805233220e-10       4.884550160796e-14      -9.328729245514e-13       2.267234412498e-16       2.380155086825e-11       2.966135813832e-12      -8.413779153499e-15 
   74       2.599457354175e-10       5.067260779461e-14      -9.965235022111e-13       2.329928223418e-16       2.303426305244e-11       2.881513043914e-12      -8.973428658740e-15 
   75       2.632433247661e-10       5.252623425575e-14      -1.061705516534e-12       2.393497193613e-16       2.229898824828e-11       2.799602729477e-12      -9.594257625825e-15 
   76       2.665766885715e-10       5.440587092552e-14      -1.128447980326e-12       2.457944329054e-16       2.159409985384e-11       2.721752241361e-12      -1.016676067624e-14 
   77       2.699477505376e-10       5.631074677193e-14      -1.196756382454e-12       2.523272505878e-16       2.091767449561e-11       2.648934051997e-12      -1.059866818269e-14 
   78       2.733525550145e-10       5.823898026581e-14      -1.266523847141e-12       2.589483348313e-16       2.026856796336e-11       2.580244323453e-12      -1.090776041759e-14 
   79       2.767848519802e-10       6.018827768766e-14      -1.337604258322e-12       2.656578160281e-16       1.964548368531e-11       2.514136881952e-12      -1.114514422060e-14 
   80       2.802395548089e-10       6.215623256499e-14      -1.409865341101e-12       2.724558022561e-16       1.904688288111e-11       2.449270030931e-12      -1.134682621918e-14 
   81       2.837197350547e-10       6.414048693371e-14      -1.483275012729e-12       2.793423035159e-16       1.847178752744e-11       2.385808187908e-12      -1.146655754287e-14 
   82       2.872307744045e-10       6.613859103764e-14      -1.557829445486e-12       2.863172942508e-16       1.791907959250e-11       2.324334501856e-12      -1.143162611976e-14 
   83       2.907769098932e-10       6.814811671108e-14      -1.633508731410e-12       2.933807314396e-16       1.738745578717e-11       2.265356732818e-12      -1.120105793179e-14 
   84       2.943568776318e-10       7.016718263729e-14      -1.710217280567e-12       3.005325414796e-16       1.687609970262e-11       2.208970117049e-12      -1.088796993753e-14 
   85       2.979675358224e-10       7.219401212840e-14      -1.787833646360e-12       3.077726302672e-16       1.638409360864e-11       2.155138681192e-12      -1.065747069417e-14 
   86       3.016062738812e-10       7.422686460239e-14      -1.866261277381e-12       3.151009048145e-16       1.591036961933e-11       2.103714244243e-12      -1.063493236507e-14 
   87       3.052745969605e-10       7.626431971524e-14      -1.945533805562e-12       3.225173312192e-16       1.545423514095e-11       2.054178768380e-12      -1.072922699184e-14 
   88       3.089750826349e-10       7.830503926572e-14      -2.025726577515e-12       3.300218851803e-16       1.501491042336e-11       2.005857683244e-12      -1.078155851004e-14 
   89       3.127097227386e-10       8.034781835604e-14      -2.106903641789e-12       3.376145661237e-16       1.459149183485e-11       1.958225127552e-12      -1.066222895866e-14 
   90       3.164780976429e-10       8.239201596140e-14      -2.189048857498e-12       3.452954983121e-16       1.418336810586e-11       1.911636009092e-12      -1.041046990721e-14 
   91       3.202789050599e-10       8.443719461889e-14      -2.272124579224e-12       3.530648452552e-16       1.378985203734e-11       1.866704563981e-12      -1.011586090523e-14 
   92       3.241106627924e-10       8.648273070645e-14      -2.356081706240e-12       3.609228250921e-16       1.341017464402e-11       1.823920812662e-12      -9.855637147536e-15 
   93       3.279722316355e-10       8.852697980932e-14      -2.440825457135e-12       3.688698555467e-16       1.304388927859e-11       1.783132183684e-12      -9.629014514586e-15 
   94       3.318623472470e-10       9.056799007171e-14      -2.526244419572e-12       3.769064315695e-16       1.269051521877e-11       1.743984377575e-12      -9.413269192375e-15 
   95       3.357794471569e-10       9.260375454093e-14      -2.612220755990e-12       3.850330825883e-16       1.234940775097e-11       1.706076558192e-12      -9.183557406751e-15 
   96       3.397222285357e-10       9.463202347351e-14      -2.698634516879e-12       3.932504079873e-16       1.201987268397e-11       1.669055018021e-12      -8.920527730709e-15 
   97       3.436914387161e-10       9.664971078712e-14      -2.785377569132e-12       4.015591875262e-16       1.170154143966e-11       1.632912844764e-12      -8.634551681850e-15 
   98       3.476883263539e-10       9.865339991522e-14      -2.872341478462e-12       4.099602887581e-16       1.139404027653e-11       1.597731558820e-12      -8.344937664851e-15 
   99       3.517140919408e-10       1.006395206495e-13      -2.959413186444e-12       4.184546351976e-16       1.109687075411e-11       1.563589749040e-12      -8.072616799039e-15 
  100       3.557694767546e-10       1.026048997980e-13      -3.046493194324e-12       4.270431999110e-16       1.080949366231e-11       1.530549754681e-12      -7.835541890796e-15 
  101       3.598534722892e-10       1.045485072931e-13      -3.133553169174e-12       4.357269823718e-16       1.053160331624e-11       1.498615984347e-12      -7.634059265291e-15 
  102       3.639644217581e-10       1.064699509789e-13      -3.220586331248e-12       4.445070308293e-16       1.026288410510e-11       1.467770375162e-12      -7.463551883708e-15 
  103       3.681004025337e-10       1.083689487568e-13      -3.307590071666e-12       4.533844509967e-16       1.000292267728e-11       1.437984663332e-12      -7.318884620323e-15 
  104       3.722596753491e-10       1.102449652152e-13      -3.394549388493e-12       4.623603605935e-16       9.751275310999e-12       1.409209425097e-12      -7.194936821908e-15 
  105       3.764421197579e-10       1.120960574653e-13      -3.481384324509e-12       4.714357432975e-16       9.507687187843e-12       1.381340252409e-12      -7.088312045380e-15 
  106       3.806479772644e-10       1.139198797252e-13      -3.567995674834e-12       4.806115772938e-16       9.271896994654e-12       1.354246347313e-12      -6.995834279031e-15 
  107       3.848774071100e-10       1.157140363056e-13      -3.654281032687e-12       4.898888809388e-16       9.043566690301e-12       1.327780275799e-12      -6.914014134605e-15 
